Distance (m),BET-7 Lat,BET-7 Lon,BET-7 Elevation (m asl),BET-7 Thaw Depth (m asl),BET-7 Thaw depth,BET-31 Lat,BET-31 Lon,BET-31 Elevation (m asl),BET-31 Thaw Depth (m asl),,BET-31 Thaw depth
0,60.79614167,-161.8239472,16.2028,15.6428,56,60.8054067,-161.8601393,30.83159637,29.89159637,,94
1,60.79613333,-161.8239556,16.3043,15.6443,66,60.80541505,-161.8601325,30.93605995,30.04605995,,89
2,60.796125,-161.8239639,16.4824,15.8924,59,60.80542339,-161.8601258,30.71945,29.54945,,117
3,60.79611667,-161.8239722,16.4568,15.7368,72,60.80543174,-161.860119,30.69992447,29.27992447,,142
4,60.79611111,-161.8239778,16.3414,15.6814,66,60.80544008,-161.8601123,30.6140728,29.1140728,,150
5,60.79610278,-161.8239861,16.3607,15.7207,64,60.80544843,-161.8601055,30.66807747,29.18807747,,148
6,60.79609444,-161.8239944,16.4779,15.8579,62,60.80545678,-161.8600988,30.68415642,29.36415642,,132
7,60.79608611,-161.8240028,16.4539,15.6839,77,60.80546512,-161.860092,30.66661835,29.57661835,,109
8,60.79607778,-161.8240111,16.4273,15.7673,66,60.80547347,-161.8600852,30.7845192,29.9545192,,83
9,60.79606944,-161.8240194,16.4426,15.8626,58,60.80548181,-161.8600785,30.93828201,30.21828201,,72
10,60.79606111,-161.8240278,16.4215,15.7515,67,60.80549016,-161.8600717,30.89826393,30.13826393,,76
11,60.79605278,-161.8240333,16.5758,15.8858,69,60.80549851,-161.860065,30.90435982,29.83435982,,107
12,60.79604444,-161.8240417,16.4598,15.7998,66,60.80550685,-161.8600582,30.85405731,30.05405731,,80
13,60.79603611,-161.82405,16.4616,15.8816,58,60.8055152,-161.8600514,30.77815819,29.36815819,,141
14,60.79602778,-161.8240583,16.5876,15.9576,63,60.80552354,-161.8600447,30.65742683,Greater than Probe Length,,
15,60.79601944,-161.8240667,16.5747,15.9147,66,60.80553189,-161.8600379,30.50462914,Greater than Probe Length,,
16,60.79601111,-161.824075,16.5306,15.8006,73,60.80554024,-161.8600312,30.42071915,Greater than Probe Length,,
17,60.79600278,-161.8240806,16.6314,15.9114,72,60.80554858,-161.8600244,30.42527962,Greater than Probe Length,,
18,60.79599444,-161.8240917,16.6419,16.0019,64,60.80555693,-161.8600176,30.49972343,27.73972343,,276
19,60.79598889,-161.8240972,16.7098,15.9498,76,60.80556527,-161.8600109,30.46478462,Greater than Probe Length,,
20,60.79598056,-161.8241056,16.7498,15.9698,78,60.80557362,-161.8600041,30.46378517,Greater than Probe Length,,
21,60.79597222,-161.8241167,16.8386,16.2186,62,60.80558197,-161.8599974,30.45088577,Greater than Probe Length,,
22,60.79596389,-161.8241222,16.7719,16.1419,63,60.80559031,-161.8599906,30.55998421,28.69998421,,186
23,60.79595556,-161.8241278,16.7943,16.2043,59,60.80559866,-161.8599838,30.71393204,29.37393204,,134
24,60.79594722,-161.8241361,16.7474,16.1674,58,60.805607,-161.8599771,30.92057228,29.75057228,,117
25,60.79593889,-161.8241417,16.9958,16.3458,65,60.80561535,-161.8599703,30.92291069,29.91291069,,101
26,60.79593056,-161.8241528,16.9451,16.3451,60,60.8056237,-161.8599636,30.90829659,29.85829659,,105
27,60.79592222,-161.8241583,16.8482,16.2782,57,60.80563204,-161.8599568,30.95119667,29.92119667,,103
28,60.79591667,-161.8241694,16.7841,16.3041,48,60.80564039,-161.8599501,30.82925415,30.08925415,,74
29,60.79590833,-161.824175,16.7765,16.2465,53,60.80564873,-161.8599433,30.813797,30.143797,,67
30,60.7959,-161.8241833,16.8948,16.3748,52,60.80565708,-161.8599365,30.86243629,30.19243629,,67
31,60.79589167,-161.8241917,16.878,16.388,49,60.80566542,-161.8599298,30.69733429,29.67733429,,102
32,60.79588333,-161.8242,16.8952,16.3052,59,60.80567377,-161.859923,30.74939537,30.07939537,,67
33,60.795875,-161.8242083,16.9552,16.4052,55,60.80568212,-161.8599163,30.78130531,30.17130531,,61
34,60.79586667,-161.8242139,16.9356,16.4456,49,60.80569046,-161.8599095,30.84194565,29.88194565,,96
35,60.79585833,-161.8242222,17,16.44,56,60.80569881,-161.8599027,30.74620438,29.83620438,,91
36,60.79585,-161.8242306,16.9022,16.4122,49,60.80570715,-161.859896,30.78377533,29.88377533,,90
37,60.79584167,-161.8242389,16.9659,16.4559,51,60.8057155,-161.8598892,30.53627014,29.40627014,,113
38,60.79583611,-161.8242472,16.9784,16.4384,54,60.80572385,-161.8598825,30.3871994,29.0471994,,134
39,60.795825,-161.8242556,16.9583,16.5183,44,60.80573219,-161.8598757,30.42946625,29.04946625,,138
40,60.79581944,-161.8242639,17.0423,16.5523,49,60.80574054,-161.8598689,30.45827484,29.16827484,,129
41,60.79581111,-161.8242722,17.0068,16.5068,50,60.80574888,-161.8598622,30.58473587,29.64473587,,94
42,60.79580278,-161.8242806,17.005,16.465,54,60.80575723,-161.8598554,30.81285477,30.16285477,,65
43,60.79579444,-161.8242861,16.977,16.527,45,60.80576558,-161.8598487,30.97295189,30.31295189,,66
44,60.79578611,-161.8242944,17.0678,16.5878,48,60.80577392,-161.8598419,30.95715523,30.35715523,,60
45,60.79577778,-161.8243028,17.1986,16.5386,66,60.80578227,-161.8598351,30.9313736,30.3413736,,59
46,60.79576944,-161.8243111,17.1439,16.5639,58,60.80579061,-161.8598284,30.98535728,30.28535728,,70
47,60.79576111,-161.8243194,17.129,16.549,58,60.80579896,-161.8598216,30.94419289,30.47419289,,47
48,60.79575556,-161.8243278,17.1153,16.6253,49,60.80580731,-161.8598149,30.82700348,30.07700348,,75
49,60.79574722,-161.8243361,17.1212,16.4712,65,60.80581565,-161.8598081,30.83784676,30.03784676,,80
50,60.79573889,-161.8243444,17.1945,16.4845,71,60.805824,-161.8598013,30.8799324,30.1799324,,70
51,60.79573056,-161.82435,17.1667,16.5667,60,60.80583234,-161.8597946,30.84004402,30.11004402,,73
52,60.79572222,-161.8243583,17.215,16.645,57,60.80584069,-161.8597878,30.79223251,30.04223251,,75
53,60.79571389,-161.8243667,17.2108,16.7008,51,60.80584904,-161.8597811,30.65175629,29.87175629,,78
54,60.79570556,-161.824375,17.3364,16.9064,43,60.80585738,-161.8597743,30.46986008,29.68986008,,78
55,60.79569722,-161.8243833,17.2983,16.7383,56,60.80586573,-161.8597676,30.42203331,29.35203331,,107
56,60.79569167,-161.8243944,17.2421,16.6121,63,60.80587407,-161.8597608,30.36203384,29.35203384,,101
57,60.79568333,-161.8244,17.2714,16.6514,62,60.80588242,-161.859754,30.42199707,29.84199707,,58
58,60.795675,-161.8244083,17.2659,16.7259,54,60.80589077,-161.8597473,30.40961266,29.61961266,,79
59,60.79566667,-161.8244194,17.1869,16.5069,68,60.80589911,-161.8597405,30.4023819,29.6523819,,75
60,60.79565833,-161.824425,17.2361,16.7261,51,60.80590746,-161.8597338,30.37473679,29.71473679,,66
61,60.79565,-161.8244333,17.3084,16.7684,54,60.8059158,-161.859727,30.32376671,29.52376671,,80
62,60.79564167,-161.8244417,17.2779,16.7279,55,60.80592415,-161.8597202,30.37579346,29.58579346,,79
63,60.79563333,-161.82445,17.3779,16.7279,65,60.8059325,-161.8597135,30.38245201,29.66245201,,72
64,60.795625,-161.8244556,17.2904,16.6804,61,60.80594084,-161.8597067,30.40904236,29.72904236,,68
65,60.79561667,-161.8244667,17.2914,16.6014,69,60.80594919,-161.8597,30.427845,29.927845,,50
66,60.79560833,-161.8244722,17.2276,16.5376,69,60.80595753,-161.8596932,30.42988586,29.93988586,,49
67,60.7956,-161.8244806,17.1987,16.4687,73,60.80596588,-161.8596864,30.44043922,29.89043922,,55
68,60.79559444,-161.8244889,17.0923,16.3023,79,60.80597423,-161.8596797,30.39884949,29.97884949,,42
69,60.79558611,-161.8244972,17.2005,16.4105,79,60.80598257,-161.8596729,30.3026371,29.8126371,,49
70,60.79557778,-161.8245056,17.21,16.52,69,60.80599092,-161.8596662,30.36002159,29.82002159,,54
71,60.79556944,-161.8245139,17.3356,16.7556,58,60.80599926,-161.8596594,30.26726532,29.53726532,,73
72,60.79556111,-161.8245222,17.3591,16.7991,56,60.80600761,-161.8596526,30.22802925,29.47802925,,75
73,60.79555278,-161.8245306,17.3884,16.8284,56,60.80601596,-161.8596459,30.14254951,29.32254951,,82
74,60.79554444,-161.8245361,17.3382,16.7982,54,60.8060243,-161.8596391,30.13844872,29.30844872,,83
75,60.79553611,-161.8245444,17.4106,16.8806,53,60.80603265,-161.8596324,30.1547699,29.4947699,,66
76,60.79552778,-161.8245528,17.4381,16.9581,48,60.80604099,-161.8596256,30.14251137,29.43251137,,71
77,60.79551944,-161.8245583,17.3665,16.8965,47,60.80604934,-161.8596188,30.2518177,29.6618177,,59
78,60.79551389,-161.8245667,17.5244,17.0144,51,60.80605768,-161.8596121,30.22055244,29.70055244,,52
79,60.79550556,-161.824575,17.5717,17.0517,52,60.80606603,-161.8596053,30.16683197,29.70683197,,46
80,60.79549722,-161.8245833,17.5489,17.0189,53,60.80607438,-161.8595986,30.18051529,29.58051529,,60
81,60.79548889,-161.8245917,17.5305,17.0005,53,60.80608272,-161.8595918,30.18099594,29.56099594,,62
82,60.79548056,-161.8246,17.4823,16.9323,55,60.80609107,-161.8595851,30.14015579,29.50015579,,64
83,60.79547222,-161.8246056,17.4541,16.9441,51,60.80609941,-161.8595783,30.14775848,29.48775848,,66
84,60.79546389,-161.8246167,17.5436,17.0036,54,60.80610776,-161.8595715,30.1552124,29.5052124,,65
85,60.79545556,-161.8246222,17.4807,17.0107,47,60.80611611,-161.8595648,30.14356995,29.58356995,,56
86,60.79544722,-161.8246333,17.51,17.04,47,60.80612445,-161.859558,30.14621353,29.67621353,,47
87,60.79543889,-161.8246417,17.4854,17.0554,43,60.8061328,-161.8595513,30.12282562,29.53282562,,59
88,60.79543056,-161.82465,17.5486,17.1386,41,60.80614114,-161.8595445,30.10936546,29.50936546,,60
89,60.795425,-161.8246556,17.6284,17.1084,52,60.80614949,-161.8595377,30.10241699,29.48241699,,62
90,60.79541667,-161.8246639,17.6371,17.0871,55,60.80615784,-161.859531,30.16063499,29.56063499,,60
91,60.79540833,-161.8246722,17.5626,17.0126,55,60.80616618,-161.8595242,30.06437111,29.47437111,,59
92,60.7954,-161.8246806,17.6232,17.0232,60,60.80617453,-161.8595175,30.03697777,29.37697777,,66
93,60.79539167,-161.8246889,17.7291,16.9391,79,60.80618287,-161.8595107,29.99201202,29.45201202,,54
94,60.79538333,-161.8246972,17.5401,16.6401,90,60.80619122,-161.8595039,30.00043869,29.45043869,,55
95,60.795375,-161.8247028,17.4943,16.8843,61,60.80619957,-161.8594972,30.06153297,29.53153297,,53
96,60.79536667,-161.8247111,17.6057,17.0057,60,60.80620791,-161.8594904,30.00169182,29.43169182,,57
97,60.79535833,-161.8247194,17.6279,17.0079,62,60.80621626,-161.8594837,30.00787926,29.37787926,,63
98,60.79535,-161.8247278,17.5959,16.9359,66,60.8062246,-161.8594769,29.98122978,29.39122978,,59
99,60.79534444,-161.8247333,17.549,16.709,84,60.80623295,-161.8594701,29.99811172,29.44811172,,55
100,60.79533611,-161.8247417,17.5509,16.5609,99,60.8062413,-161.8594634,29.93911552,29.36911552,,57